-51.0075
-48.0063
-45.0112
-42.0116
-39.0109
-36.0088
-33.0102
-30.013
-27.0154
-24.0148
-21.0171
-18.0155
-15.0184
-12.0153
-9.01762
-6.01899
-3.01635
-0.0182206
2.98091
5.97904
8.98118
11.9778
14.9784
17.9791
20.9782
23.9778
26.9755
29.9756
32.9747
35.9754
38.9755
41.9766
44.9783
47.9779
50.9785
53.9797
56.9773
59.9779
62.9781
65.9797
68.9798
